wavenumber_cm1,absorbance
650.4205,0.006448
652.2841,0.007156
654.1478,0.008152
656.0115,0.009354
657.8751,0.009614
659.7388,0.008955
661.6025,0.008807
663.4661,0.009853
665.3298,0.010426
667.1935,0.010317
669.0571,0.01152
670.9208,0.012847
672.7845,0.013988
674.6481,0.015198
676.5118,0.016215
678.3755,0.016886
680.2392,0.01853
682.1028,0.022331
683.9665,0.026574
685.8302,0.030119
687.6938,0.03376
689.5575,0.03711
691.4212,0.038826
693.2848,0.039463
695.1485,0.041944
697.0122,0.045447
698.8758,0.049048
700.7395,0.052992
702.6032,0.05873
704.4669,0.067802
706.3305,0.083269
708.1942,0.109616
710.0579,0.157524
711.9215,0.24491
713.7852,0.372674
715.6489,0.426037
717.5125,0.301075
719.3762,0.16342
721.2399,0.09652
723.1035,0.078449
724.9672,0.079826
726.8309,0.086568
728.6945,0.089084
730.5582,0.082855
732.4219,0.072273
734.2856,0.062307
736.1492,0.053752
738.0129,0.047462
739.8766,0.043959
741.7402,0.043075
743.6039,0.043891
745.4676,0.045705
747.3312,0.050411
749.1949,0.056926
751.0586,0.061824
752.9222,0.064705
754.7859,0.067346
756.6496,0.073437
758.5132,0.086241
760.3769,0.106507
762.2406,0.137926
764.1043,0.186508
765.9679,0.261943
767.8316,0.373367
769.6953,0.504428
771.5589,0.591421
773.4226,0.570169
775.2863,0.464314
777.1499,0.345414
779.0136,0.25359
780.8773,0.198031
782.7409,0.169405
784.6046,0.156355
786.4683,0.156451
788.332,0.170727
790.1956,0.190587
792.0593,0.19501
793.923,0.173791
795.7866,0.140673
797.6503,0.1106
799.514,0.088265
801.3776,0.072891
803.2413,0.063745
805.105,0.058508
806.9686,0.055804
808.8323,0.054789
810.696,0.053416
812.5596,0.052359
814.4233,0.053585
816.287,0.056587
818.1507,0.059649
820.0143,0.064457
821.878,0.072034
823.7417,0.081754
825.6053,0.095037
827.469,0.112734
829.3327,0.136793
831.1963,0.172112
833.06,0.220985
834.9237,0.283409
836.7873,0.35813
838.651,0.436481
840.5147,0.497915
842.3784,0.52349
844.242,0.507453
846.1057,0.459888
847.9694,0.395941
849.833,0.330152
851.6967,0.270974
853.5604,0.217727
855.424,0.170587
857.2877,0.132078
859.1514,0.103257
861.015,0.082855
862.8787,0.069257
864.7424,0.060592
866.606,0.055287
868.4697,0.052863
870.3334,0.051893
872.1971,0.051849
874.0607,0.052884
875.9244,0.05321
877.7881,0.05226
879.6517,0.04952
881.5154,0.04443
883.3791,0.040214
885.2427,0.039494
887.1064,0.044451
888.9701,0.057335
890.8337,0.075593
892.6974,0.084289
894.5611,0.07565
896.4247,0.064938
898.2884,0.065125
900.1521,0.076023
902.0158,0.088424
903.8794,0.084522
905.7431,0.062835
907.6068,0.042439
909.4704,0.031584
911.3341,0.027106
913.1978,0.025777
915.0614,0.024779
916.9251,0.024126
918.7888,0.023799
920.6524,0.023388
922.5161,0.022621
924.3798,0.022063
926.2435,0.022184
928.1071,0.022388
929.9708,0.022116
931.8345,0.022182
933.6981,0.02281
935.5618,0.023964
937.4255,0.025445
939.2891,0.027162
941.1528,0.029263
943.0165,0.031145
944.8801,0.033366
946.7438,0.036744
948.6075,0.041458
950.4711,0.047305
952.3348,0.055347
954.1985,0.065884
956.0622,0.079859
957.9258,0.098928
959.7895,0.123986
961.6532,0.157151
963.5168,0.201723
965.3805,0.25797
967.2442,0.315979
969.1078,0.353344
970.9715,0.349865
972.8352,0.311148
974.6988,0.259553
976.5625,0.213696
978.4262,0.180154
980.2899,0.157806
982.1535,0.142438
984.0172,0.131067
985.8809,0.123593
987.7445,0.120189
989.6082,0.120283
991.4719,0.123372
993.3355,0.130352
995.1992,0.140142
997.0629,0.150429
998.9265,0.162036
1000.7902,0.177653
1002.6539,0.200203
1004.5175,0.231513
1006.3812,0.271449
1008.2449,0.317905
1010.1086,0.367482
1011.9722,0.415286
1013.8359,0.453119
1015.6996,0.470792
1017.5632,0.461086
1019.4269,0.425102
1021.2906,0.373349
1023.1542,0.317751
1025.0179,0.266411
1026.8816,0.225838
1028.7452,0.197696
1030.6089,0.179361
1032.4726,0.168293
1034.3362,0.162253
1036.1999,0.158842
1038.0636,0.156961
1039.9273,0.156958
1041.7909,0.160058
1043.6546,0.167991
1045.5183,0.182043
1047.3819,0.202444
1049.2456,0.229961
1051.1093,0.265106
1052.9729,0.309488
1054.8366,0.367371
1056.7003,0.444792
1058.5639,0.547566
1060.4276,0.676963
1062.2913,0.828818
1064.155,0.985005
1066.0186,1.099909
1067.8823,1.110679
1069.746,1.016933
1071.6096,0.887249
1073.4733,0.760112
1075.337,0.645437
1077.2006,0.547936
1079.0643,0.465964
1080.928,0.396529
1082.7916,0.338015
1084.6553,0.289198
1086.519,0.249426
1088.3826,0.216834
1090.2463,0.190527
1092.11,0.169505
1093.9737,0.15213
1095.8373,0.137814
1097.701,0.1263
1099.5647,0.117175
1101.4283,0.110736
1103.292,0.106816
1105.1557,0.104481
1107.0193,0.104418
1108.883,0.106751
1110.7467,0.110441
1112.6103,0.114757
1114.474,0.119576
1116.3377,0.124173
1118.2014,0.128249
1120.065,0.132448
1121.9287,0.13726
1123.7924,0.144153
1125.656,0.153497
1127.5197,0.165251
1129.3834,0.181172
1131.247,0.202333
1133.1107,0.227384
1134.9744,0.256344
1136.838,0.290358
1138.7017,0.330375
1140.5654,0.376468
1142.429,0.427952
1144.2927,0.484462
1146.1564,0.543108
1148.0201,0.596795
1149.8837,0.639037
1151.7474,0.664393
1153.6111,0.67083
1155.4747,0.658247
1157.3384,0.630588
1159.2021,0.594443
1161.0657,0.554848
1162.9294,0.513387
1164.7931,0.471742
1166.6567,0.430899
1168.5204,0.391317
1170.3841,0.353141
1172.2477,0.316196
1174.1114,0.281617
1175.9751,0.249952
1177.8388,0.221652
1179.7024,0.197619
1181.5661,0.178394
1183.4298,0.164216
1185.2934,0.153953
1187.1571,0.146252
1189.0208,0.14139
1190.8844,0.140243
1192.7481,0.141555
1194.6118,0.143037
1196.4754,0.143472
1198.3391,0.142021
1200.2028,0.138457
1202.0665,0.132873
1203.9301,0.12587
1205.7938,0.119445
1207.6575,0.114713
1209.5211,0.111843
1211.3848,0.111347
1213.2485,0.113641
1215.1121,0.118751
1216.9758,0.125951
1218.8395,0.132704
1220.7031,0.137432
1222.5668,0.140178
1224.4305,0.141706
1226.2941,0.143353
1228.1578,0.145574
1230.0215,0.149149
1231.8852,0.154534
1233.7488,0.16195
1235.6125,0.172491
1237.4762,0.187522
1239.3398,0.208462
1241.2035,0.236859
1243.0672,0.273726
1244.9308,0.319375
1246.7945,0.374976
1248.6582,0.441741
1250.5218,0.515193
1252.3855,0.585121
1254.2492,0.640718
1256.1129,0.669427
1257.9765,0.66659
1259.8402,0.639772
1261.7039,0.597841
1263.5675,0.548507
1265.4312,0.497764
1267.2949,0.448496
1269.1585,0.402531
1271.0222,0.360756
1272.8859,0.322585
1274.7495,0.287024
1276.6132,0.2539
1278.4769,0.223712
1280.3405,0.196608
1282.2042,0.172827
1284.0679,0.152972
1285.9316,0.137374
1287.7952,0.126639
1289.6589,0.12038
1291.5226,0.117555
1293.3862,0.117521
1295.2499,0.119409
1297.1136,0.12176
1298.9772,0.123631
1300.8409,0.123353
1302.7046,0.119458
1304.5682,0.111618
1306.4319,0.099661
1308.2956,0.085583
1310.1592,0.071586
1312.0229,0.059078
1313.8866,0.048857
1315.7503,0.041181
1317.6139,0.035853
1319.4776,0.03199
1321.3413,0.029231
1323.2049,0.027412
1325.0686,0.026067
1326.9323,0.025044
1328.7959,0.024676
1330.6596,0.024706
1332.5233,0.024743
1334.3869,0.025431
1336.2506,0.026555
1338.1143,0.027056
1339.978,0.027162
1341.8416,0.027572
1343.7053,0.027987
1345.569,0.028041
1347.4326,0.028078
1349.2963,0.02857
1351.16,0.029599
1353.0236,0.031735
1354.8873,0.035159
1356.751,0.040747
1358.6146,0.048705
1360.4783,0.058039
1362.342,0.067088
1364.2056,0.075339
1366.0693,0.086258
1367.933,0.105508
1369.7967,0.137013
1371.6603,0.17665
1373.524,0.207146
1375.3877,0.207228
1377.2513,0.182335
1379.115,0.160628
1380.9787,0.156441
1382.8423,0.168541
1384.706,0.191822
1386.5697,0.216234
1388.4333,0.227976
1390.297,0.218118
1392.1607,0.189365
1394.0244,0.153891
1395.888,0.123151
1397.7517,0.102463
1399.6154,0.092592
1401.479,0.091164
1403.3427,0.094185
1405.2064,0.097722
1407.07,0.098609
1408.9337,0.094714
1410.7974,0.087116
1412.661,0.079353
1414.5247,0.074337
1416.3884,0.07216
1418.252,0.070773
1420.1157,0.066906
1421.9794,0.058692
1423.8431,0.048383
1425.7067,0.039856
1427.5704,0.034444
1429.4341,0.031492
1431.2977,0.029977
1433.1614,0.029038
1435.0251,0.028708
1436.8887,0.029847
1438.7524,0.031986
1440.6161,0.035735
1442.4797,0.041648
1444.3434,0.047473
1446.2071,0.051719
1448.0707,0.053539
1449.9344,0.05188
1451.7981,0.048688
1453.6618,0.046458
1455.5254,0.045635
1457.3891,0.046305
1459.2528,0.048516
1461.1164,0.052291
1462.9801,0.058197
1464.8438,0.065584
1466.7074,0.0724
1468.5711,0.07716
1470.4348,0.079897
1472.2984,0.083591
1474.1621,0.091308
1476.0258,0.104768
1477.8895,0.123358
1479.7531,0.138372
1481.6168,0.138297
1483.4805,0.120248
1485.3441,0.093485
1487.2078,0.069532
1489.0715,0.052997
1490.9351,0.042669
1492.7988,0.03634
1494.6625,0.031829
1496.5261,0.028046
1498.3898,0.025105
1500.2535,0.022544
1502.1171,0.019758
1503.9808,0.017173
1505.8445,0.015308
1507.7082,0.013746
1509.5718,0.012405
1511.4355,0.011421
1513.2992,0.010512
1515.1628,0.009921
1517.0265,0.009582
1518.8902,0.009056
1520.7538,0.008971
1522.6175,0.009108
1524.4812,0.008895
1526.3448,0.00863
1528.2085,0.008694
1530.0722,0.008829
1531.9359,0.008988
1533.7995,0.009509
1535.6632,0.010385
1537.5269,0.011462
1539.3905,0.012738
1541.2542,0.015006
1543.1179,0.017952
1544.9815,0.020844
1546.8452,0.023481
1548.7089,0.025618
1550.5725,0.026675
1552.4362,0.026215
1554.2999,0.024262
1556.1635,0.020726
1558.0272,0.01714
1559.8909,0.014764
1561.7546,0.01318
1563.6182,0.011904
1565.4819,0.011157
1567.3456,0.010512
1569.2092,0.009729
1571.0729,0.009331
1572.9366,0.009068
1574.8002,0.008875
1576.6639,0.009025
1578.5276,0.00941
1580.3912,0.010088
1582.2549,0.011073
1584.1186,0.011269
1585.9822,0.010853
1587.8459,0.010921
1589.7096,0.010897
1591.5733,0.010402
1593.4369,0.010107
1595.3006,0.010269
1597.1643,0.010511
1599.0279,0.010228
1600.8916,0.009838
1602.7553,0.009708
1604.6189,0.009692
1606.4826,0.009924
1608.3463,0.009822
1610.2099,0.009036
1612.0736,0.008663
1613.9373,0.008591
1615.801,0.008584
1617.6646,0.008915
1619.5283,0.008898
1621.392,0.008346
1623.2556,0.008187
1625.1193,0.008263
1626.983,0.008037
1628.8466,0.007776
1630.7103,0.007738
1632.574,0.007869
1634.4376,0.008132
1636.3013,0.008745
1638.165,0.009158
1640.0286,0.009006
1641.8923,0.008863
1643.756,0.009211
1645.6197,0.009396
1647.4833,0.009495
1649.347,0.009787
1651.2107,0.010186
1653.0743,0.011011
1654.938,0.011642
1656.8017,0.012049
1658.6653,0.012583
1660.529,0.013059
1662.3927,0.013662
1664.2563,0.014701
1666.12,0.01579
1667.9837,0.017121
1669.8474,0.019315
1671.711,0.021686
1673.5747,0.023565
1675.4384,0.02585
1677.302,0.028598
1679.1657,0.031272
1681.0294,0.03447
1682.893,0.037795
1684.7567,0.040221
1686.6204,0.042512
1688.484,0.045567
1690.3477,0.049037
1692.2114,0.052724
1694.075,0.056845
1695.9387,0.06165
1697.8024,0.067066
1699.6661,0.073423
1701.5297,0.080657
1703.3934,0.088439
1705.2571,0.097084
1707.1207,0.106344
1708.9844,0.116974
1710.8481,0.128554
1712.7117,0.140702
1714.5754,0.154548
1716.4391,0.170021
1718.3027,0.187324
1720.1664,0.20718
1722.0301,0.230434
1723.8937,0.258255
1725.7574,0.293247
1727.6211,0.335523
1729.4848,0.38318
1731.3484,0.435782
1733.2121,0.489642
1735.0758,0.533183
1736.9394,0.559364
1738.8031,0.56728
1740.6668,0.552703
1742.5304,0.521341
1744.3941,0.484313
1746.2578,0.443578
1748.1214,0.400862
1749.9851,0.361767
1751.8488,0.329587
1753.7125,0.306972
1755.5761,0.296511
1757.4398,0.300931
1759.3035,0.323047
1761.1671,0.36292
1763.0308,0.417894
1764.8945,0.481693
1766.7581,0.548321
1768.6218,0.609711
1770.4855,0.65065
1772.3491,0.65277
1774.2128,0.608538
1776.0765,0.531523
1777.9401,0.447675
1779.8038,0.378111
1781.6675,0.332528
1783.5312,0.313545
1785.3948,0.321329
1787.2585,0.354919
1789.1222,0.412966
1790.9858,0.49154
1792.8495,0.577336
1794.7132,0.648777
1796.5768,0.689924
1798.4405,0.694938
1800.3042,0.668131
1802.1678,0.623195
1804.0315,0.571416
1805.8952,0.518037
1807.7589,0.46573
1809.6225,0.414761
1811.4862,0.3666
1813.3499,0.322002
1815.2135,0.280082
1817.0772,0.240608
1818.9409,0.204023
1820.8045,0.172382
1822.6682,0.14654
1824.5319,0.124824
1826.3955,0.106939
1828.2592,0.093889
1830.1229,0.085341
1831.9865,0.078151
1833.8502,0.072068
1835.7139,0.067587
1837.5776,0.063336
1839.4412,0.059767
1841.3049,0.057354
1843.1686,0.055045
1845.0322,0.052587
1846.8959,0.051239
1848.7596,0.050472
1850.6232,0.049292
1852.4869,0.048966
1854.3506,0.049864
1856.2142,0.051661
1858.0779,0.053219
1859.9416,0.053024
1861.8052,0.050762
1863.6689,0.046165
1865.5326,0.041058
1867.3963,0.03659
1869.2599,0.032187
1871.1236,0.027559
1872.9873,0.023328
1874.8509,0.020358
1876.7146,0.018297
1878.5783,0.016789
1880.4419,0.016187
1882.3056,0.015528
1884.1693,0.012861
1886.0329,0.009674
1887.8966,0.008831
1889.7603,0.008845
1891.624,0.007953
1893.4876,0.007035
1895.3513,0.00678
1897.215,0.007017
1899.0786,0.005817
1900.9423,0.004326
1902.806,0.004855
1904.6696,0.005854
1906.5333,0.006186
1908.397,0.005563
1910.2606,0.004858
1912.1243,0.004428
1913.988,0.003825
1915.8516,0.003395
1917.7153,0.001979
1919.579,0.000648
1921.4427,0.001405
1923.3063,0.002494
1925.17,0.001184
1927.0337,-0.000507
1928.8973,5.3e-05
1930.761,0.000311
1932.6247,-0.001208
1934.4883,-0.001614
1936.352,0.000735
1938.2157,0.001727
1940.0793,-0.001323
1941.943,-0.00439
1943.8067,-0.006088
1945.6704,-0.006912
1947.534,-0.005716
1949.3977,-0.001306
1951.2614,0.003631
1953.125,0.003139
1954.9887,0.002172
1956.8524,0.005049
1958.716,0.006632
1960.5797,0.009301
1962.4434,0.011941
1964.307,0.005582
1966.1707,-0.000342
1968.0344,0.003605
1969.898,0.004429
1971.7617,-0.001635
1973.6254,-0.005923
1975.4891,-0.0084
1977.3527,-0.009334
1979.2164,-0.007071
1981.0801,-0.007092
1982.9437,-0.008587
1984.8074,-0.005863
1986.6711,-0.006182
1988.5347,-0.009757
1990.3984,-0.01151
1992.2621,-0.010454
1994.1257,-0.007955
1995.9894,-0.007095
1997.8531,-0.006191
1999.7167,-0.006571
2001.5804,-0.007519
2003.4441,-0.009182
2005.3078,-0.013789
2007.1714,-0.014194
2009.0351,-0.009839
2010.8988,-0.010574
2012.7624,-0.013217
2014.6261,-0.012504
2016.4898,-0.013622
2018.3534,-0.016671
2020.2171,-0.017086
2022.0808,-0.016282
2023.9444,-0.016633
2025.8081,-0.014147
2027.6718,-0.012213
2029.5355,-0.018555
2031.3991,-0.023113
2033.2628,-0.024801
2035.1265,-0.023699
2036.9901,-0.020702
2038.8538,-0.020058
2040.7175,-0.017019
2042.5811,-0.014255
2044.4448,-0.014273
2046.3085,-0.017522
2048.1721,-0.017012
2050.0358,-0.012146
2051.8995,-0.01069
2053.7631,-0.010916
2055.6268,-0.009491
2057.4905,-0.008414
2059.3542,-0.008658
2061.2178,-0.008099
2063.0815,-0.005234
2064.9452,-0.003268
2066.8088,-0.002741
2068.6725,-0.002607
2070.5362,-0.003828
2072.3998,-0.005287
2074.2635,-0.006194
2076.1272,-0.005102
2077.9908,-0.003232
2079.8545,-0.0044
2081.7182,-0.005621
2083.5819,-0.003497
2085.4455,-0.002606
2087.3092,-0.00426
2089.1729,-0.005982
2091.0365,-0.006052
2092.9002,-0.005428
2094.7639,-0.006873
2096.6275,-0.005624
2098.4912,-0.002806
2100.3549,-0.004152
2102.2185,-0.006189
2104.0822,-0.006221
2105.9459,-0.005785
2107.8095,-0.004969
2109.6732,-0.003821
2111.5369,-0.005092
2113.4006,-0.007033
2115.2642,-0.00584
2117.1279,-0.005047
2118.9916,-0.006541
2120.8552,-0.007302
2122.7189,-0.00875
2124.5826,-0.010018
2126.4462,-0.009989
2128.3099,-0.011146
2130.1736,-0.011195
2132.0372,-0.01095
2133.9009,-0.011857
2135.7646,-0.011904
2137.6282,-0.012395
2139.4919,-0.014778
2141.3556,-0.017174
2143.2193,-0.01885
2145.0829,-0.020238
2146.9466,-0.01897
2148.8103,-0.014365
2150.6739,-0.011079
2152.5376,-0.014174
2154.4013,-0.024225
2156.2649,-0.033646
2158.1286,-0.032567
2159.9923,-0.031514
2161.8559,-0.032653
2163.7196,-0.024339
2165.5833,-0.017289
2167.447,-0.018232
2169.3106,-0.022032
2171.1743,-0.022085
2173.038,-0.018813
2174.9016,-0.014689
2176.7653,-0.011295
2178.629,-0.012213
2180.4926,-0.014109
2182.3563,-0.014933
2184.22,-0.015066
2186.0836,-0.011816
2187.9473,-0.008804
2189.811,-0.007776
2191.6746,-0.008374
2193.5383,-0.010892
2195.402,-0.011438
2197.2657,-0.010954
2199.1293,-0.011472
2200.993,-0.008632
2202.8567,-0.00615
2204.7203,-0.007522
2206.584,-0.005225
2208.4477,-0.002382
2210.3113,-0.005022
2212.175,-0.00773
2214.0387,-0.009444
2215.9023,-0.008246
2217.766,-0.005298
2219.6297,-0.004511
2221.4934,-0.004897
2223.357,-0.006487
2225.2207,-0.007243
2227.0844,-0.005785
2228.948,-0.005164
2230.8117,-0.005354
2232.6754,-0.00625
2234.539,-0.007669
2236.4027,-0.006582
2238.2664,-0.004324
2240.13,-0.002826
2241.9937,-0.003387
2243.8574,-0.00592
2245.721,-0.005738
2247.5847,-0.003545
2249.4484,-0.003642
2251.3121,-0.004027
2253.1757,-0.003694
2255.0394,-0.003437
2256.9031,-0.002765
2258.7667,-0.002695
2260.6304,-0.003809
2262.4941,-0.004371
2264.3577,-0.003133
2266.2214,-0.002225
2268.0851,-0.00226
2269.9487,-0.00331
2271.8124,-0.00347
2273.6761,-0.001914
2275.5397,-0.001634
2277.4034,-0.002027
2279.2671,-0.001692
2281.1308,-0.001387
2282.9944,-0.002161
2284.8581,-0.002572
2286.7218,-0.001903
2288.5854,-0.001542
2290.4491,-0.000781
2292.3128,-0.000548
2294.1764,-0.00108
2296.0401,-0.000758
2297.9038,6.4e-05
2299.7674,-5.1e-05
2301.6311,-6.9e-05
2303.4948,0.000314
2305.3585,0.000653
2307.2221,0.00166
2309.0858,0.002777
2310.9495,0.00227
2312.8131,0.00138
2314.6768,0.001033
2316.5405,0.001029
2318.4041,0.001344
2320.2678,0.001987
2322.1315,0.003036
2323.9951,0.003283
2325.8588,0.002944
2327.7225,0.002957
2329.5861,0.002614
2331.4498,0.002248
2333.3135,0.002495
2335.1772,0.00234
2337.0408,0.001676
2338.9045,0.001504
2340.7682,0.001747
2342.6318,0.001755
2344.4955,0.001623
2346.3592,0.001758
2348.2228,0.001921
2350.0865,0.001567
2351.9502,0.001399
2353.8138,0.001741
2355.6775,0.00201
2357.5412,0.001755
2359.4049,0.001657
2361.2685,0.002154
2363.1322,0.002258
2364.9959,0.001436
2366.8595,0.000868
2368.7232,0.001319
2370.5869,0.001762
2372.4505,0.001791
2374.3142,0.001123
2376.1779,0.000827
2378.0415,0.000689
2379.9052,0.00049
2381.7689,0.00098
2383.6325,0.001173
2385.4962,0.000801
2387.3599,0.000692
2389.2236,0.000646
2391.0872,0.000842
2392.9509,0.000846
2394.8146,0.000515
2396.6782,0.000499
2398.5419,0.000545
2400.4056,-0.000359
2402.2692,-0.001277
2404.1329,-0.001176
2405.9966,-0.000541
2407.8602,-0.000216
2409.7239,-0.000806
2411.5876,-0.002034
2413.4512,-0.002237
2415.3149,-0.001577
2417.1786,-0.0012
2419.0423,-0.00094
2420.9059,-0.001101
2422.7696,-0.001152
2424.6333,-0.00136
2426.4969,-0.001725
2428.3606,-0.00172
2430.2243,-0.001846
2432.0879,-0.001944
2433.9516,-0.001544
2435.8153,-0.001033
2437.6789,-0.001455
2439.5426,-0.002289
2441.4063,-0.002389
2443.27,-0.002021
2445.1336,-0.00174
2446.9973,-0.00202
2448.861,-0.001909
2450.7246,-0.001823
2452.5883,-0.00222
2454.452,-0.002416
2456.3156,-0.002669
2458.1793,-0.002626
2460.043,-0.002794
2461.9066,-0.003038
2463.7703,-0.002473
2465.634,-0.002157
2467.4976,-0.002273
2469.3613,-0.00255
2471.225,-0.002385
2473.0887,-0.001821
2474.9523,-0.002201
2476.816,-0.002497
2478.6797,-0.002102
2480.5433,-0.001445
2482.407,-0.001037
2484.2707,-0.001229
2486.1343,-0.001384
2487.998,-0.001512
2489.8617,-0.002135
2491.7253,-0.001901
2493.589,-0.001467
2495.4527,-0.001802
2497.3164,-0.002277
2499.18,-0.00234
2501.0437,-0.001947
2502.9074,-0.002181
2504.771,-0.003293
2506.6347,-0.003728
2508.4984,-0.00307
2510.362,-0.002445
2512.2257,-0.002558
2514.0894,-0.002781
2515.953,-0.001968
2517.8167,-0.001396
2519.6804,-0.002516
2521.544,-0.003187
2523.4077,-0.002182
