wavenumber_cm1,absorbance
650.4205,0.008817
652.2841,0.00849
654.1478,0.009215
656.0115,0.011034
657.8751,0.011424
659.7388,0.011323
661.6025,0.011858
663.4661,0.01169
665.3298,0.011539
667.1935,0.01303
669.0571,0.014458
670.9208,0.015325
672.7845,0.01654
674.6481,0.018144
676.5118,0.020236
678.3755,0.022311
680.2392,0.025932
682.1028,0.031226
683.9665,0.03562
685.8302,0.040388
687.6938,0.045352
689.5575,0.048625
691.4212,0.050168
693.2848,0.051676
695.1485,0.05494
697.0122,0.060146
698.8758,0.06536
700.7395,0.071286
702.6032,0.079939
704.4669,0.091107
706.3305,0.108396
708.1942,0.137168
710.0579,0.18893
711.9215,0.280984
713.7852,0.412836
715.6489,0.463795
717.5125,0.334673
719.3762,0.194021
721.2399,0.12909
723.1035,0.118632
724.9672,0.128934
726.8309,0.140227
728.6945,0.141401
730.5582,0.130491
732.4219,0.112834
734.2856,0.095313
736.1492,0.080933
738.0129,0.071668
739.8766,0.067131
741.7402,0.065149
743.6039,0.063694
745.4676,0.065642
747.3312,0.07197
749.1949,0.079136
751.0586,0.085341
752.9222,0.089236
754.7859,0.091925
756.6496,0.098082
758.5132,0.111091
760.3769,0.132471
762.2406,0.165502
764.1043,0.217223
765.9679,0.298652
767.8316,0.418949
769.6953,0.556989
771.5589,0.646283
773.4226,0.621599
775.2863,0.512402
777.1499,0.391025
779.0136,0.297762
780.8773,0.23976
782.7409,0.205329
784.6046,0.180979
786.4683,0.165579
788.332,0.165831
790.1956,0.176826
792.0593,0.17989
793.923,0.164637
795.7866,0.137902
797.6503,0.111918
799.514,0.092092
801.3776,0.079089
803.2413,0.072306
805.105,0.068505
806.9686,0.067224
808.8323,0.067858
810.696,0.070085
812.5596,0.074361
814.4233,0.080055
816.287,0.087715
818.1507,0.098798
820.0143,0.112599
821.878,0.128545
823.7417,0.148794
825.6053,0.174613
827.469,0.207125
829.3327,0.248907
831.1963,0.302144
833.06,0.367714
834.9237,0.444074
836.7873,0.524732
838.651,0.593461
840.5147,0.631966
842.3784,0.630362
844.242,0.58818
846.1057,0.519757
847.9694,0.440776
849.833,0.365212
851.6967,0.296564
853.5604,0.235995
855.424,0.185157
857.2877,0.145629
859.1514,0.116446
861.015,0.096358
862.8787,0.083741
864.7424,0.075799
866.606,0.071191
868.4697,0.068711
870.3334,0.067875
872.1971,0.068834
874.0607,0.070024
875.9244,0.070267
877.7881,0.068702
879.6517,0.064126
881.5154,0.056712
883.3791,0.049253
885.2427,0.045572
887.1064,0.048146
888.9701,0.059317
890.8337,0.077279
892.6974,0.087655
894.5611,0.08052
896.4247,0.069054
898.2884,0.070682
900.1521,0.089081
902.0158,0.110719
903.8794,0.108502
905.7431,0.079105
907.6068,0.050034
909.4704,0.035176
911.3341,0.029398
913.1978,0.027058
915.0614,0.026321
916.9251,0.026299
918.7888,0.026284
920.6524,0.025816
922.5161,0.024581
924.3798,0.023509
926.2435,0.022512
928.1071,0.021649
929.9708,0.021721
931.8345,0.022156
933.6981,0.02211
935.5618,0.022926
937.4255,0.024778
939.2891,0.026286
941.1528,0.027542
943.0165,0.029175
944.8801,0.031081
946.7438,0.034157
948.6075,0.038725
950.4711,0.044112
952.3348,0.051366
954.1985,0.060976
956.0622,0.073624
957.9258,0.090617
959.7895,0.11406
961.6532,0.145547
963.5168,0.188318
965.3805,0.243935
967.2442,0.303179
969.1078,0.344049
970.9715,0.346767
972.8352,0.312554
974.6988,0.263189
976.5625,0.218092
978.4262,0.184033
980.2899,0.159158
982.1535,0.141017
984.0172,0.127582
985.8809,0.118673
987.7445,0.115018
989.6082,0.115577
991.4719,0.119693
993.3355,0.127442
995.1992,0.136335
997.0629,0.143536
998.9265,0.150483
1000.7902,0.161597
1002.6539,0.179158
1004.5175,0.203955
1006.3812,0.236798
1008.2449,0.274685
1010.1086,0.314266
1011.9722,0.352282
1013.8359,0.381392
1015.6996,0.3943
1017.5632,0.387404
1019.4269,0.361092
1021.2906,0.320769
1023.1542,0.275953
1025.0179,0.2349
1026.8816,0.202884
1028.7452,0.180688
1030.6089,0.166355
1032.4726,0.15837
1034.3362,0.154992
1036.1999,0.15379
1038.0636,0.154027
1039.9273,0.156624
1041.7909,0.163119
1043.6546,0.174648
1045.5183,0.191903
1047.3819,0.215123
1049.2456,0.245075
1051.1093,0.28393
1052.9729,0.332953
1054.8366,0.395422
1056.7003,0.47772
1058.5639,0.585529
1060.4276,0.720885
1062.2913,0.877426
1064.155,1.033691
1066.0186,1.139718
1067.8823,1.14369
1069.746,1.05207
1071.6096,0.918552
1073.4733,0.788291
1075.337,0.675531
1077.2006,0.578799
1079.0643,0.497436
1080.928,0.43064
1082.7916,0.374305
1084.6553,0.325048
1086.519,0.281116
1088.3826,0.242755
1090.2463,0.210041
1092.11,0.182207
1093.9737,0.15942
1095.8373,0.140569
1097.701,0.125764
1099.5647,0.115469
1101.4283,0.108845
1103.292,0.104218
1105.1557,0.10128
1107.0193,0.100853
1108.883,0.102475
1110.7467,0.10569
1112.6103,0.109632
1114.474,0.113626
1116.3377,0.117749
1118.2014,0.122088
1120.065,0.126552
1121.9287,0.131721
1123.7924,0.13873
1125.656,0.148182
1127.5197,0.160499
1129.3834,0.176737
1131.247,0.196956
1133.1107,0.220349
1134.9744,0.248272
1136.838,0.282063
1138.7017,0.320947
1140.5654,0.365055
1142.429,0.415556
1144.2927,0.47198
1146.1564,0.531674
1148.0201,0.587962
1149.8837,0.634351
1151.7474,0.667685
1153.6111,0.681663
1155.4747,0.674079
1157.3384,0.650878
1159.2021,0.618941
1161.0657,0.580641
1162.9294,0.539097
1164.7931,0.497188
1166.6567,0.45607
1168.5204,0.416333
1170.3841,0.376985
1172.2477,0.339278
1174.1114,0.304572
1175.9751,0.273347
1177.8388,0.245742
1179.7024,0.223049
1181.5661,0.206258
1183.4298,0.194206
1185.2934,0.185058
1187.1571,0.17818
1189.0208,0.175004
1190.8844,0.176375
1192.7481,0.179601
1194.6118,0.181686
1196.4754,0.181468
1198.3391,0.178657
1200.2028,0.172813
1202.0665,0.163924
1203.9301,0.153293
1205.7938,0.142417
1207.6575,0.132746
1209.5211,0.125267
1211.3848,0.120568
1213.2485,0.118973
1215.1121,0.120358
1216.9758,0.12383
1218.8395,0.127673
1220.7031,0.130036
1222.5668,0.130245
1224.4305,0.128735
1226.2941,0.126937
1228.1578,0.125981
1230.0215,0.126327
1231.8852,0.127697
1233.7488,0.130184
1235.6125,0.135148
1237.4762,0.143336
1239.3398,0.155379
1241.2035,0.171848
1243.0672,0.19333
1244.9308,0.220344
1246.7945,0.254368
1248.6582,0.29573
1250.5218,0.343084
1252.3855,0.394012
1254.2492,0.442406
1256.1129,0.480146
1257.9765,0.501282
1259.8402,0.50378
1261.7039,0.488445
1263.5675,0.460381
1265.4312,0.425326
1267.2949,0.387312
1269.1585,0.349843
1271.0222,0.314693
1272.8859,0.281739
1274.7495,0.251034
1276.6132,0.223227
1278.4769,0.198108
1280.3405,0.175362
1282.2042,0.156571
1284.0679,0.142002
1285.9316,0.130624
1287.7952,0.123256
1289.6589,0.120111
1291.5226,0.11979
1293.3862,0.121023
1295.2499,0.123186
1297.1136,0.126137
1298.9772,0.128163
1300.8409,0.127342
1302.7046,0.123494
1304.5682,0.116086
1306.4319,0.104942
1308.2956,0.091003
1310.1592,0.075654
1312.0229,0.061725
1313.8866,0.050805
1315.7503,0.042855
1317.6139,0.037505
1319.4776,0.033699
1321.3413,0.030807
1323.2049,0.029102
1325.0686,0.028275
1326.9323,0.028027
1328.7959,0.028596
1330.6596,0.029595
1332.5233,0.030732
1334.3869,0.032558
1336.2506,0.034267
1338.1143,0.034892
1339.978,0.034888
1341.8416,0.034786
1343.7053,0.034358
1345.569,0.03328
1347.4326,0.032183
1349.2963,0.031373
1351.16,0.031116
1353.0236,0.032264
1354.8873,0.034875
1356.751,0.039182
1358.6146,0.045669
1360.4783,0.053972
1362.342,0.062078
1364.2056,0.069063
1366.0693,0.077594
1367.933,0.092423
1369.7967,0.11674
1371.6603,0.14858
1373.524,0.176114
1375.3877,0.182058
1377.2513,0.168182
1379.115,0.154681
1380.9787,0.153181
1382.8423,0.165355
1384.706,0.189179
1386.5697,0.216629
1388.4333,0.23344
1390.297,0.228708
1392.1607,0.203309
1394.0244,0.168273
1395.888,0.13658
1397.7517,0.115859
1399.6154,0.106941
1401.479,0.107519
1403.3427,0.112972
1405.2064,0.117106
1407.07,0.116273
1408.9337,0.10929
1410.7974,0.098136
1412.661,0.087429
1414.5247,0.080208
1416.3884,0.076488
1418.252,0.074918
1420.1157,0.071188
1421.9794,0.0624
1423.8431,0.051801
1425.7067,0.042753
1427.5704,0.036418
1429.4341,0.033111
1431.2977,0.031178
1433.1614,0.029762
1435.0251,0.029091
1436.8887,0.029431
1438.7524,0.030859
1440.6161,0.03361
1442.4797,0.037258
1444.3434,0.041429
1446.2071,0.045451
1448.0707,0.047353
1449.9344,0.046107
1451.7981,0.043634
1453.6618,0.041828
1455.5254,0.041063
1457.3891,0.04158
1459.2528,0.04331
1461.1164,0.046527
1462.9801,0.051687
1464.8438,0.058586
1466.7074,0.065338
1468.5711,0.070395
1470.4348,0.074465
1472.2984,0.0804
1474.1621,0.091038
1476.0258,0.10814
1477.8895,0.130715
1479.7531,0.149598
1481.6168,0.15111
1483.4805,0.131594
1485.3441,0.101921
1487.2078,0.07511
1489.0715,0.05675
1490.9351,0.045422
1492.7988,0.038015
1494.6625,0.032888
1496.5261,0.029233
1498.3898,0.026274
1500.2535,0.023549
1502.1171,0.02062
1503.9808,0.017771
1505.8445,0.015859
1507.7082,0.014397
1509.5718,0.013118
1511.4355,0.01206
1513.2992,0.011021
1515.1628,0.010304
1517.0265,0.009987
1518.8902,0.009562
1520.7538,0.009168
1522.6175,0.009015
1524.4812,0.008706
1526.3448,0.008288
1528.2085,0.008455
1530.0722,0.008881
1531.9359,0.009171
1533.7995,0.009505
1535.6632,0.010184
1537.5269,0.011448
1539.3905,0.012944
1541.2542,0.015052
1543.1179,0.017717
1544.9815,0.020773
1546.8452,0.024035
1548.7089,0.026227
1550.5725,0.027298
1552.4362,0.027526
1554.2999,0.026272
1556.1635,0.023473
1558.0272,0.020487
1559.8909,0.018054
1561.7546,0.015768
1563.6182,0.013889
1565.4819,0.012713
1567.3456,0.012042
1569.2092,0.011465
1571.0729,0.01098
1572.9366,0.010305
1574.8002,0.009668
1576.6639,0.009755
1578.5276,0.010383
1580.3912,0.010706
1582.2549,0.010754
1584.1186,0.011051
1585.9822,0.010681
1587.8459,0.010089
1589.7096,0.010351
1591.5733,0.010493
1593.4369,0.010385
1595.3006,0.010573
1597.1643,0.010806
1599.0279,0.010782
1600.8916,0.010537
1602.7553,0.010389
1604.6189,0.010412
1606.4826,0.010147
1608.3463,0.009841
1610.2099,0.009604
1612.0736,0.009286
1613.9373,0.00862
1615.801,0.007857
1617.6646,0.007977
1619.5283,0.008336
1621.392,0.008172
1623.2556,0.008189
1625.1193,0.008458
1626.983,0.008421
1628.8466,0.008101
1630.7103,0.00818
1632.574,0.008406
1634.4376,0.008229
1636.3013,0.008322
1638.165,0.008812
1640.0286,0.008936
1641.8923,0.009022
1643.756,0.009178
1645.6197,0.008958
1647.4833,0.009095
1649.347,0.009595
1651.2107,0.010129
1653.0743,0.011016
1654.938,0.011659
1656.8017,0.011976
1658.6653,0.012697
1660.529,0.013446
1662.3927,0.014049
1664.2563,0.014883
1666.12,0.01612
1667.9837,0.017772
1669.8474,0.019712
1671.711,0.021619
1673.5747,0.023784
1675.4384,0.02679
1677.302,0.029925
1679.1657,0.033036
1681.0294,0.036215
1682.893,0.039199
1684.7567,0.042145
1686.6204,0.045307
1688.484,0.049102
1690.3477,0.053117
1692.2114,0.057006
1694.075,0.061582
1695.9387,0.067325
1697.8024,0.073901
1699.6661,0.081088
1701.5297,0.089063
1703.3934,0.098613
1705.2571,0.10951
1707.1207,0.120546
1708.9844,0.132971
1710.8481,0.146444
1712.7117,0.160284
1714.5754,0.175227
1716.4391,0.19012
1718.3027,0.205576
1720.1664,0.22378
1722.0301,0.243855
1723.8937,0.266093
1725.7574,0.294294
1727.6211,0.328389
1729.4848,0.366629
1731.3484,0.409477
1733.2121,0.453407
1735.0758,0.489546
1736.9394,0.513041
1738.8031,0.523865
1740.6668,0.518673
1742.5304,0.499079
1744.3941,0.47263
1746.2578,0.444842
1748.1214,0.418102
1749.9851,0.394656
1751.8488,0.379891
1753.7125,0.376734
1755.5761,0.386598
1757.4398,0.411164
1759.3035,0.449736
1761.1671,0.499984
1763.0308,0.557417
1764.8945,0.6143
1766.7581,0.663559
1768.6218,0.700812
1770.4855,0.717555
1772.3491,0.699736
1774.2128,0.643827
1776.0765,0.563248
1777.9401,0.478427
1779.8038,0.406981
1781.6675,0.358036
1783.5312,0.334699
1785.3948,0.338415
1787.2585,0.369785
1789.1222,0.426976
1790.9858,0.503787
1792.8495,0.586337
1794.7132,0.652419
1796.5768,0.684854
1798.4405,0.682771
1800.3042,0.655433
1802.1678,0.61125
1804.0315,0.561425
1805.8952,0.509465
1807.7589,0.455618
1809.6225,0.405899
1811.4862,0.359833
1813.3499,0.315877
1815.2135,0.275375
1817.0772,0.237415
1818.9409,0.202936
1820.8045,0.173148
1822.6682,0.147157
1824.5319,0.124713
1826.3955,0.107233
1828.2592,0.094954
1830.1229,0.084959
1831.9865,0.07673
1833.8502,0.071158
1835.7139,0.067011
1837.5776,0.063379
1839.4412,0.059762
1841.3049,0.057083
1843.1686,0.055035
1845.0322,0.05301
1846.8959,0.051551
1848.7596,0.049919
1850.6232,0.048868
1852.4869,0.048831
1854.3506,0.049357
1856.2142,0.050769
1858.0779,0.051823
1859.9416,0.052214
1861.8052,0.051814
1863.6689,0.048479
1865.5326,0.043646
1867.3963,0.039321
1869.2599,0.034632
1871.1236,0.029389
1872.9873,0.025711
1874.8509,0.023706
1876.7146,0.020932
1878.5783,0.019306
1880.4419,0.01913
1882.3056,0.017113
1884.1693,0.014441
1886.0329,0.012554
1887.8966,0.010789
1889.7603,0.010122
1891.624,0.009923
1893.4876,0.009071
1895.3513,0.00823
1897.215,0.007305
1899.0786,0.006515
1900.9423,0.006738
1902.806,0.007677
1904.6696,0.007754
1906.5333,0.006262
1908.397,0.005559
1910.2606,0.005724
1912.1243,0.004857
1913.988,0.004412
1915.8516,0.003504
1917.7153,0.00191
1919.579,0.002087
1921.4427,0.003235
1923.3063,0.004125
1925.17,0.002877
1927.0337,0.002118
1928.8973,0.003519
1930.761,0.00226
1932.6247,-0.000956
1934.4883,-0.00152
1936.352,0.000288
1938.2157,0.000341
1940.0793,-0.001686
1941.943,-0.002988
1943.8067,-0.004088
1945.6704,-0.004825
1947.534,-0.002191
1949.3977,0.001871
1951.2614,0.00286
1953.125,0.001444
1954.9887,0.000987
1956.8524,0.003503
1958.716,0.007104
1960.5797,0.008913
1962.4434,0.010402
1964.307,0.006781
1966.1707,0.000449
1968.0344,0.000942
1969.898,0.00218
1971.7617,-0.001077
1973.6254,-0.00402
1975.4891,-0.004199
1977.3527,-0.003786
1979.2164,-0.003638
1981.0801,-0.003206
1982.9437,-0.003054
1984.8074,-0.001798
1986.6711,-0.003764
1988.5347,-0.006597
1990.3984,-0.006625
1992.2621,-0.005028
1994.1257,-0.001922
1995.9894,-0.004314
1997.8531,-0.006651
1999.7167,-0.005357
2001.5804,-0.006289
2003.4441,-0.007087
2005.3078,-0.005033
2007.1714,-0.004974
2009.0351,-0.007193
2010.8988,-0.005598
2012.7624,-0.008228
2014.6261,-0.014483
2016.4898,-0.014928
2018.3534,-0.016411
2020.2171,-0.017007
2022.0808,-0.012094
2023.9444,-0.013602
2025.8081,-0.017648
2027.6718,-0.017025
2029.5355,-0.018061
2031.3991,-0.017634
2033.2628,-0.017278
2035.1265,-0.0194
2036.9901,-0.018051
2038.8538,-0.012209
2040.7175,-0.008042
2042.5811,-0.009163
2044.4448,-0.011143
2046.3085,-0.012654
2048.1721,-0.011325
2050.0358,-0.01008
2051.8995,-0.012628
2053.7631,-0.012911
2055.6268,-0.010327
2057.4905,-0.0075
2059.3542,-0.005359
2061.2178,-0.005553
2063.0815,-0.005691
2064.9452,-0.004956
2066.8088,-0.004405
2068.6725,-0.004733
2070.5362,-0.004184
2072.3998,-0.002026
2074.2635,-0.003536
2076.1272,-0.006003
2077.9908,-0.004278
2079.8545,-0.00281
2081.7182,-0.003729
2083.5819,-0.00328
2085.4455,-0.003178
2087.3092,-0.005503
2089.1729,-0.006792
2091.0365,-0.005079
2092.9002,-0.004032
2094.7639,-0.005503
2096.6275,-0.005216
2098.4912,-0.00365
2100.3549,-0.004573
2102.2185,-0.005526
2104.0822,-0.004331
2105.9459,-0.004467
2107.8095,-0.005332
2109.6732,-0.005765
2111.5369,-0.00667
2113.4006,-0.005479
2115.2642,-0.003913
2117.1279,-0.004838
2118.9916,-0.006603
2120.8552,-0.007983
2122.7189,-0.00841
2124.5826,-0.008205
2126.4462,-0.008344
2128.3099,-0.008867
2130.1736,-0.010473
2132.0372,-0.011768
2133.9009,-0.012689
2135.7646,-0.014855
2137.6282,-0.01703
2139.4919,-0.016739
2141.3556,-0.01576
2143.2193,-0.016232
2145.0829,-0.017498
2146.9466,-0.017353
2148.8103,-0.01391
2150.6739,-0.012852
2152.5376,-0.016356
2154.4013,-0.02016
2156.2649,-0.022675
2158.1286,-0.026315
2159.9923,-0.030087
2161.8559,-0.030878
2163.7196,-0.026906
2165.5833,-0.022577
2167.447,-0.022382
2169.3106,-0.025425
2171.1743,-0.022928
2173.038,-0.017341
2174.9016,-0.016728
2176.7653,-0.017955
2178.629,-0.017797
2180.4926,-0.016165
2182.3563,-0.012719
2184.22,-0.007924
2186.0836,-0.008332
2187.9473,-0.013053
2189.811,-0.010244
2191.6746,-0.006283
2193.5383,-0.008397
2195.402,-0.009361
2197.2657,-0.009444
2199.1293,-0.008317
2200.993,-0.004372
2202.8567,-0.005527
2204.7203,-0.010645
2206.584,-0.009644
2208.4477,-0.006667
2210.3113,-0.008784
2212.175,-0.009779
2214.0387,-0.007287
2215.9023,-0.003302
2217.766,-0.000449
2219.6297,-0.001829
2221.4934,-0.003213
2223.357,-0.004012
2225.2207,-0.006044
2227.0844,-0.006673
2228.948,-0.005443
2230.8117,-0.002877
2232.6754,-0.003143
2234.539,-0.005203
2236.4027,-0.004545
2238.2664,-0.004233
2240.13,-0.004914
2241.9937,-0.004655
2243.8574,-0.004818
2245.721,-0.004651
2247.5847,-0.004099
2249.4484,-0.004693
2251.3121,-0.005124
2253.1757,-0.002844
2255.0394,-0.000775
2256.9031,-0.001433
2258.7667,-0.002135
2260.6304,-0.002253
2262.4941,-0.0019
2264.3577,-0.002016
2266.2214,-0.003508
2268.0851,-0.005463
2269.9487,-0.005765
2271.8124,-0.003878
2273.6761,-0.002116
2275.5397,-0.001611
2277.4034,-0.002053
2279.2671,-0.003027
2281.1308,-0.003263
2282.9944,-0.002348
2284.8581,-0.001579
2286.7218,-0.000746
2288.5854,-0.000464
2290.4491,-0.000952
2292.3128,-0.000593
2294.1764,0.000183
2296.0401,0.00029
2297.9038,0.000202
2299.7674,2.4e-05
2301.6311,-9.6e-05
2303.4948,0.000143
2305.3585,0.001019
2307.2221,0.001677
2309.0858,0.001884
2310.9495,0.001918
2312.8131,0.00196
2314.6768,0.002241
2316.5405,0.002022
2318.4041,0.001579
2320.2678,0.001961
2322.1315,0.002774
2323.9951,0.003218
2325.8588,0.003366
2327.7225,0.00359
2329.5861,0.003183
2331.4498,0.002305
2333.3135,0.002264
2335.1772,0.00241
2337.0408,0.001923
2338.9045,0.001771
2340.7682,0.002102
2342.6318,0.002211
2344.4955,0.002196
2346.3592,0.002001
2348.2228,0.001914
2350.0865,0.001881
2351.9502,0.001803
2353.8138,0.002274
2355.6775,0.002597
2357.5412,0.002125
2359.4049,0.001802
2361.2685,0.002149
2363.1322,0.002485
2364.9959,0.002374
2366.8595,0.001915
2368.7232,0.001828
2370.5869,0.001975
2372.4505,0.00145
2374.3142,0.001076
2376.1779,0.001106
2378.0415,0.001226
2379.9052,0.001496
2381.7689,0.001339
2383.6325,0.00096
2385.4962,0.001077
2387.3599,0.00123
2389.2236,0.000967
2391.0872,0.001013
2392.9509,0.000639
2394.8146,1.7e-05
2396.6782,-4.9e-05
2398.5419,-8.3e-05
2400.4056,-0.000902
2402.2692,-0.001891
2404.1329,-0.001211
2405.9966,5e-06
2407.8602,0.000148
2409.7239,-0.000263
2411.5876,-0.000744
2413.4512,-0.001143
2415.3149,-0.001365
2417.1786,-0.001177
2419.0423,-0.000939
2420.9059,-0.001026
2422.7696,-0.001218
2424.6333,-0.001634
2426.4969,-0.001725
2428.3606,-0.000796
2430.2243,-0.000193
2432.0879,-0.000613
2433.9516,-0.001117
2435.8153,-0.001402
2437.6789,-0.001621
2439.5426,-0.002061
2441.4063,-0.002105
2443.27,-0.000804
2445.1336,-0.001
2446.9973,-0.002025
2448.861,-0.00167
2450.7246,-0.001239
2452.5883,-0.001843
2454.452,-0.002527
2456.3156,-0.002319
2458.1793,-0.002041
2460.043,-0.002456
2461.9066,-0.002415
2463.7703,-0.001736
2465.634,-0.002042
2467.4976,-0.002156
2469.3613,-0.001452
2471.225,-0.001031
2473.0887,-0.001531
2474.9523,-0.00218
2476.816,-0.001326
2478.6797,8e-05
2480.5433,0.000367
2482.407,-0.000606
2484.2707,-0.001062
2486.1343,-0.000564
2487.998,-0.000488
2489.8617,-0.000823
2491.7253,-0.000809
2493.589,-0.001268
2495.4527,-0.0016
2497.3164,-0.001289
2499.18,-0.001258
2501.0437,-0.001399
2502.9074,-0.001637
2504.771,-0.002591
2506.6347,-0.003183
2508.4984,-0.002473
2510.362,-0.002052
2512.2257,-0.001479
2514.0894,-0.001448
2515.953,-0.001698
2517.8167,-0.000893
2519.6804,-0.00107
2521.544,-0.001243
2523.4077,-0.000952
2525.2714,-0.001293
